SpectraSuite Datei
++++++++++++++++++++++++++++++++++++
Datum: Fri Jul 11 03:59:16 CEST 2008
Benutzer: fwtmess
Dark-Spektrum vorhanden: Nein
Referenz-Spektrum vorhanden: Nein
Zahl der probierten Teilspektren: 1
Spektrometer: HR+C1743
Integrationszeit (usec): 8000 (HR+C1743)
Spektren Durchschnitt berechnet: 1 (HR+C1743)
Boxcar Glättung: 0 (HR+C1743)
Dunkelstromkorrektur: Nein (HR+C1743)
Puls/Lampe aktiviert: Nein (HR+C1743)
Correct for Detector Non-linearity: Nein (HR+C1743)
Streulichtkorrektur: Nein (HR+C1743)
Anzahl Pixel in verarbeitetem Spektrum: 2048
>>>>>Begin Processed Spectral Data<<<<<
189,03	585,00
189,49	593,00
189,96	595,00
190,43	602,00
190,90	600,00
191,37	602,00
191,84	606,00
192,31	614,00
192,78	600,00
193,24	600,00
193,71	599,00
194,18	598,00
194,65	613,00
195,12	612,00
195,59	583,00
196,06	591,00
196,52	609,00
196,99	597,00
197,46	601,00
197,93	608,00
198,40	608,00
198,87	596,00
199,34	598,00
199,80	590,00
200,27	612,00
200,74	615,00
201,21	583,00
201,68	605,00
202,15	592,00
202,61	609,00
203,08	593,00
203,55	614,00
204,02	622,00
204,49	603,00
204,96	585,00
205,42	590,00
205,89	608,00
206,36	610,00
206,83	606,00
207,30	609,00
207,76	610,00
208,23	608,00
208,70	598,00
209,17	587,00
209,64	596,00
210,10	613,00
210,57	607,00
211,04	612,00
211,51	602,00
211,98	620,00
212,44	580,00
212,91	585,00
213,38	604,00
213,85	598,00
214,31	576,00
214,78	592,00
215,25	601,00
215,72	602,00
216,19	595,00
216,65	611,00
217,12	633,00
217,59	610,00
218,06	612,00
218,52	594,00
218,99	604,00
219,46	593,00
219,93	598,00
220,39	594,00
220,86	604,00
221,33	614,00
221,80	596,00
222,26	588,00
222,73	614,00
223,20	613,00
223,66	597,00
224,13	603,00
224,60	603,00
225,07	607,00
225,53	594,00
226,00	597,00
226,47	606,00
226,94	590,00
227,40	608,00
227,87	600,00
228,34	598,00
228,80	584,00
229,27	589,00
229,74	607,00
230,21	615,00
230,67	590,00
231,14	584,00
231,61	601,00
232,07	609,00
232,54	614,00
233,01	605,00
233,47	598,00
233,94	618,00
234,41	591,00
234,87	595,00
235,34	596,00
235,81	608,00
236,27	578,00
236,74	613,00
237,21	603,00
237,67	608,00
238,14	613,00
238,61	602,00
239,07	597,00
239,54	615,00
240,01	603,00
240,47	599,00
240,94	587,00
241,41	609,00
241,87	600,00
242,34	593,00
242,81	593,00
243,27	606,00
243,74	616,00
244,21	606,00
244,67	598,00
245,14	594,00
245,60	594,00
246,07	598,00
246,54	605,00
247,00	611,00
247,47	608,00
247,94	581,00
248,40	613,00
248,87	615,00
249,33	596,00
249,80	594,00
250,27	608,00
250,73	608,00
251,20	580,00
251,66	590,00
252,13	600,00
252,60	612,00
253,06	612,00
253,53	582,00
253,99	597,00
254,46	604,00
254,93	585,00
255,39	602,00
255,86	611,00
256,32	597,00
256,79	605,00
257,26	591,00
257,72	608,00
258,19	599,00
258,65	596,00
259,12	600,00
259,58	607,00
260,05	607,00
260,51	596,00
260,98	601,00
261,45	600,00
261,91	604,00
262,38	608,00
262,84	596,00
263,31	614,00
263,77	595,00
264,24	603,00
264,70	583,00
265,17	611,00
265,63	604,00
266,10	591,00
266,57	593,00
267,03	602,00
267,50	610,00
267,96	608,00
268,43	587,00
268,89	605,00
269,36	615,00
269,82	611,00
270,29	606,00
270,75	596,00
271,22	594,00
271,68	586,00
272,15	594,00
272,61	606,00
273,08	594,00
273,54	594,00
274,01	601,00
274,47	610,00
274,94	601,00
275,40	592,00
275,87	607,00
276,33	613,00
276,80	587,00
277,26	595,00
277,73	626,00
278,19	604,00
278,66	612,00
279,12	588,00
279,59	604,00
280,05	608,00
280,52	607,00
280,98	586,00
281,44	620,00
281,91	619,00
282,37	596,00
282,84	599,00
283,30	590,00
283,77	615,00
284,23	606,00
284,70	608,00
285,16	603,00
285,62	595,00
286,09	596,00
286,55	596,00
287,02	592,00
287,48	604,00
287,95	610,00
288,41	580,00
288,88	609,00
289,34	604,00
289,80	590,00
290,27	604,00
290,73	600,00
291,20	606,00
291,66	596,00
292,12	590,00
292,59	619,00
293,05	628,00
293,52	589,00
293,98	610,00
294,44	608,00
294,91	609,00
295,37	593,00
295,84	612,00
296,30	604,00
296,76	594,00
297,23	592,00
297,69	601,00
298,16	612,00
298,62	598,00
299,08	589,00
299,55	597,00
300,01	616,00
300,47	617,00
300,94	617,00
301,40	590,00
301,87	602,00
302,33	592,00
302,79	592,00
303,26	615,00
303,72	608,00
304,18	596,00
304,65	606,00
305,11	601,00
305,57	614,00
306,04	596,00
306,50	612,00
306,96	612,00
307,43	609,00
307,89	607,00
308,35	618,00
308,82	578,00
309,28	599,00
309,74	608,00
310,21	601,00
310,67	588,00
311,13	599,00
311,60	618,00
312,06	590,00
312,52	591,00
312,99	604,00
313,45	605,00
313,91	584,00
314,38	605,00
314,84	612,00
315,30	614,00
315,76	600,00
316,23	597,00
316,69	606,00
317,15	608,00
317,62	597,00
318,08	602,00
318,54	597,00
319,00	610,00
319,47	589,00
319,93	596,00
320,39	599,00
320,86	588,00
321,32	597,00
321,78	600,00
322,24	618,00
322,71	592,00
323,17	597,00
323,63	600,00
324,09	604,00
324,56	613,00
325,02	598,00
325,48	600,00
325,94	598,00
326,41	610,00
326,87	601,00
327,33	617,00
327,79	624,00
328,26	593,00
328,72	605,00
329,18	606,00
329,64	608,00
330,11	602,00
330,57	590,00
331,03	607,00
331,49	607,00
331,95	607,00
332,42	595,00
332,88	610,00
333,34	592,00
333,80	586,00
334,27	595,00
334,73	597,00
335,19	616,00
335,65	598,00
336,11	612,00
336,58	605,00
337,04	612,00
337,50	604,00
337,96	615,00
338,42	611,00
338,88	606,00
339,35	592,00
339,81	594,00
340,27	614,00
340,73	613,00
341,19	588,00
341,66	598,00
342,12	619,00
342,58	597,00
343,04	592,00
343,50	596,00
343,96	601,00
344,43	610,00
344,89	605,00
345,35	594,00
345,81	606,00
346,27	610,00
346,73	588,00
347,19	575,00
347,66	609,00
348,12	607,00
348,58	602,00
349,04	614,00
349,50	612,00
349,96	590,00
350,42	597,00
350,88	591,00
351,35	597,00
351,81	612,00
352,27	593,00
352,73	612,00
353,19	598,00
353,65	605,00
354,11	582,00
354,57	596,00
355,04	615,00
355,50	602,00
355,96	603,00
356,42	596,00
356,88	600,00
357,34	608,00
357,80	589,00
358,26	601,00
358,72	619,00
359,18	597,00
359,64	608,00
360,11	602,00
360,57	607,00
361,03	599,00
361,49	602,00
361,95	596,00
362,41	618,00
362,87	592,00
363,33	585,00
363,79	610,00
364,25	609,00
364,71	612,00
365,17	602,00
365,63	596,00
366,09	623,00
366,55	608,00
367,01	594,00
367,48	588,00
367,94	613,00
368,40	607,00
368,86	593,00
369,32	593,00
369,78	616,00
370,24	598,00
370,70	584,00
371,16	573,00
371,62	606,00
372,08	601,00
372,54	590,00
373,00	596,00
373,46	611,00
373,92	589,00
374,38	600,00
374,84	609,00
375,30	601,00
375,76	610,00
376,22	608,00
376,68	594,00
377,14	605,00
377,60	598,00
378,06	601,00
378,52	615,00
378,98	612,00
379,44	607,00
379,90	596,00
380,36	620,00
380,82	609,00
381,28	591,00
381,74	596,00
382,20	596,00
382,66	628,00
383,12	620,00
383,58	615,00
384,04	610,00
384,50	632,00
384,96	640,00
385,41	659,00
385,87	675,00
386,33	704,00
386,79	713,00
387,25	776,00
387,71	1111,00
388,17	1326,00
388,63	896,00
389,09	642,00
389,55	617,00
390,01	604,00
390,47	604,00
390,93	611,00
391,39	615,00
391,85	627,00
392,31	602,00
392,76	605,00
393,22	598,00
393,68	613,00
394,14	600,00
394,60	617,00
395,06	618,00
395,52	632,00
395,98	631,00
396,44	604,00
396,90	612,00
397,36	618,00
397,81	588,00
398,27	611,00
398,73	606,00
399,19	624,00
399,65	606,00
400,11	624,00
400,57	642,00
401,03	633,00
401,48	661,00
401,94	686,00
402,40	647,00
402,86	610,00
403,32	584,00
403,78	598,00
404,24	610,00
404,70	612,00
405,15	591,00
405,61	597,00
406,07	606,00
406,53	625,00
406,99	604,00
407,45	617,00
407,90	624,00
408,36	604,00
408,82	593,00
409,28	614,00
409,74	614,00
410,20	624,00
410,65	616,00
411,11	616,00
411,57	651,00
412,03	616,00
412,49	594,00
412,95	591,00
413,40	619,00
413,86	610,00
414,32	604,00
414,78	608,00
415,24	602,00
415,69	598,00
416,15	600,00
416,61	592,00
417,07	617,00
417,53	604,00
417,98	574,00
418,44	607,00
418,90	622,00
419,36	596,00
419,82	582,00
420,27	616,00
420,73	618,00
421,19	605,00
421,65	584,00
422,10	601,00
422,56	622,00
423,02	596,00
423,48	571,00
423,93	609,00
424,39	608,00
424,85	599,00
425,31	596,00
425,76	616,00
426,22	619,00
426,68	611,00
427,14	618,00
427,59	595,00
428,05	620,00
428,51	604,00
428,97	605,00
429,42	612,00
429,88	616,00
430,34	610,00
430,80	587,00
431,25	612,00
431,71	607,00
432,17	613,00
432,62	592,00
433,08	607,00
433,54	613,00
434,00	613,00
434,45	615,00
434,91	611,00
435,37	626,00
435,82	606,00
436,28	606,00
436,74	612,00
437,20	623,00
437,65	624,00
438,11	636,00
438,57	608,00
439,02	627,00
439,48	600,00
439,94	611,00
440,39	617,00
440,85	621,00
441,31	583,00
441,76	609,00
442,22	622,00
442,68	627,00
443,13	657,00
443,59	690,00
444,05	699,00
444,50	743,00
444,96	788,00
445,42	871,00
445,87	1071,00
446,33	1359,00
446,79	1027,00
447,24	676,00
447,70	629,00
448,15	626,00
448,61	603,00
449,07	609,00
449,52	598,00
449,98	616,00
450,44	628,00
450,89	596,00
451,35	623,00
451,80	627,00
452,26	617,00
452,72	629,00
453,17	623,00
453,63	625,00
454,08	611,00
454,54	603,00
455,00	620,00
455,45	612,00
455,91	610,00
456,36	598,00
456,82	622,00
457,28	608,00
457,73	602,00
458,19	598,00
458,64	618,00
459,10	611,00
459,56	601,00
460,01	603,00
460,47	600,00
460,92	606,00
461,38	581,00
461,83	608,00
462,29	622,00
462,75	607,00
463,20	615,00
463,66	603,00
464,11	609,00
464,57	609,00
465,02	580,00
465,48	607,00
465,93	607,00
466,39	622,00
466,84	606,00
467,30	624,00
467,76	646,00
468,21	666,00
468,67	664,00
469,12	748,00
469,58	852,00
470,03	951,00
470,49	1005,00
470,94	819,00
471,40	647,00
471,85	609,00
472,31	603,00
472,76	617,00
473,22	616,00
473,67	627,00
474,13	617,00
474,58	631,00
475,04	607,00
475,49	609,00
475,95	594,00
476,40	599,00
476,86	631,00
477,31	610,00
477,77	626,00
478,22	627,00
478,68	626,00
479,13	608,00
479,59	625,00
480,04	631,00
480,50	651,00
480,95	638,00
481,41	649,00
481,86	637,00
482,31	660,00
482,77	658,00
483,22	658,00
483,68	632,00
484,13	649,00
484,59	646,00
485,04	637,00
485,50	657,00
485,95	637,00
486,40	624,00
486,86	621,00
487,31	644,00
487,77	657,00
488,22	650,00
488,68	647,00
489,13	689,00
489,58	722,00
490,04	735,00
490,49	811,00
490,95	1068,00
491,40	1167,00
491,86	878,00
492,31	650,00
492,76	628,00
493,22	626,00
493,67	611,00
494,13	631,00
494,58	645,00
495,03	644,00
495,49	624,00
495,94	603,00
496,39	626,00
496,85	633,00
497,30	615,00
497,76	635,00
498,21	758,00
498,66	964,00
499,12	1059,00
499,57	1229,00
500,02	1712,00
500,48	2793,00
500,93	2674,00
501,39	1237,00
501,84	857,00
502,29	923,00
502,75	1036,00
503,20	1006,00
503,65	908,00
504,11	858,00
504,56	686,00
505,01	633,00
505,47	670,00
505,92	696,00
506,37	725,00
506,83	812,00
507,28	819,00
507,73	697,00
508,19	638,00
508,64	619,00
509,09	642,00
509,55	643,00
510,00	674,00
510,45	731,00
510,90	779,00
511,36	727,00
511,81	667,00
512,26	633,00
512,72	655,00
513,17	707,00
513,62	773,00
514,08	768,00
514,53	745,00
514,98	663,00
515,43	608,00
515,89	630,00
516,34	652,00
516,79	672,00
517,25	693,00
517,70	821,00
518,15	871,00
518,60	794,00
519,06	742,00
519,51	805,00
519,96	792,00
520,41	716,00
520,87	672,00
521,32	670,00
521,77	672,00
522,22	647,00
522,68	614,00
523,13	597,00
523,58	614,00
524,03	605,00
524,49	598,00
524,94	597,00
525,39	612,00
525,84	617,00
526,29	606,00
526,75	621,00
527,20	610,00
527,65	613,00
528,10	626,00
528,56	652,00
529,01	660,00
529,46	647,00
529,91	668,00
530,36	704,00
530,82	756,00
531,27	838,00
531,72	1106,00
532,17	1336,00
532,62	1330,00
533,08	1323,00
533,53	1220,00
533,98	840,00
534,43	692,00
534,88	681,00
535,33	677,00
535,79	649,00
536,24	686,00
536,69	648,00
537,14	642,00
537,59	628,00
538,04	637,00
538,50	654,00
538,95	688,00
539,40	706,00
539,85	682,00
540,30	654,00
540,75	676,00
541,21	708,00
541,66	731,00
542,11	776,00
542,56	852,00
543,01	760,00
543,46	676,00
543,91	641,00
544,36	652,00
544,82	644,00
545,27	676,00
545,72	627,00
546,17	619,00
546,62	610,00
547,07	613,00
547,52	628,00
547,97	613,00
548,43	646,00
548,88	650,00
549,33	618,00
549,78	605,00
550,23	604,00
550,68	621,00
551,13	588,00
551,58	625,00
552,03	618,00
552,48	625,00
552,93	616,00
553,39	620,00
553,84	606,00
554,29	617,00
554,74	650,00
555,19	670,00
555,64	680,00
556,09	634,00
556,54	601,00
556,99	613,00
557,44	614,00
557,89	620,00
558,34	618,00
558,79	588,00
559,24	606,00
559,69	606,00
560,14	612,00
560,59	588,00
561,04	595,00
561,50	602,00
561,95	594,00
562,40	600,00
562,85	617,00
563,30	644,00
563,75	667,00
564,20	714,00
564,65	777,00
565,10	803,00
565,55	700,00
566,00	629,00
566,45	625,00
566,90	663,00
567,35	691,00
567,80	776,00
568,25	804,00
568,70	705,00
569,15	636,00
569,60	624,00
570,05	644,00
570,50	680,00
570,95	693,00
571,40	669,00
571,85	657,00
572,30	659,00
572,75	689,00
573,20	791,00
573,65	1016,00
574,09	1302,00
574,54	1333,00
574,99	1762,00
575,44	2748,00
575,89	2211,00
576,34	1058,00
576,79	704,00
577,24	680,00
577,69	673,00
578,14	687,00
578,59	721,00
579,04	852,00
579,49	1034,00
579,94	1114,00
580,39	1160,00
580,84	1704,00
581,29	1848,00
581,74	1195,00
582,18	840,00
582,63	1008,00
583,08	1712,00
583,53	2644,00
583,98	5856,00
584,43	7760,00
584,88	4313,00
585,33	2479,00
585,78	3397,00
586,23	7117,00
586,68	11033,00
587,12	8379,00
587,57	4043,00
588,02	1666,00
588,47	1062,00
588,92	1209,00
589,37	1648,00
589,82	1521,00
590,27	1140,00
590,71	948,00
591,16	829,00
591,61	801,00
592,06	936,00
592,51	1508,00
592,96	2485,00
593,41	4621,00
593,86	4256,00
594,30	1780,00
594,75	991,00
595,20	1060,00
595,65	1341,00
596,10	1698,00
596,55	2333,00
596,99	1934,00
597,44	1143,00
597,89	1094,00
598,34	1015,00
598,79	817,00
599,24	718,00
599,68	694,00
600,13	686,00
600,58	699,00
601,03	871,00
601,48	1206,00
601,93	1966,00
602,37	1917,00
602,82	1070,00
603,27	825,00
603,72	843,00
604,17	806,00
604,61	754,00
605,06	837,00
605,51	1307,00
605,96	2262,00
606,40	4355,00
606,85	3834,00
607,30	1880,00
607,75	2113,00
608,20	4144,00
608,64	7928,00
609,09	6082,00
609,54	2064,00
609,99	1062,00
610,43	1048,00
610,88	1230,00
611,33	1130,00
611,78	1182,00
612,22	1732,00
612,67	3206,00
613,12	7940,00
613,57	9747,00
614,01	4330,00
614,46	1879,00
614,91	2153,00
615,36	3796,00
615,80	3172,00
616,25	1476,00
616,70	1034,00
617,15	1196,00
617,59	1186,00
618,04	873,00
618,49	744,00
618,93	730,00
619,38	789,00
619,83	991,00
620,28	1427,00
620,72	2219,00
621,17	1823,00
621,62	1002,00
622,06	728,00
622,51	664,00
622,96	673,00
623,40	743,00
623,85	808,00
624,30	877,00
624,75	1265,00
625,19	2544,00
625,64	5264,00
626,09	4688,00
626,53	1808,00
626,98	925,00
627,43	779,00
627,87	841,00
628,32	1134,00
628,77	1410,00
629,21	1930,00
629,66	2559,00
630,11	1805,00
630,55	1096,00
631,00	1159,00
631,45	2201,00
631,89	4487,00
632,34	6973,00
632,78	6025,00
633,23	2435,00
633,68	1122,00
634,12	975,00
634,57	928,00
635,02	814,00
635,46	782,00
635,91	900,00
636,35	1248,00
636,80	2632,00
637,25	6759,00
637,69	6929,00
638,14	3805,00
638,58	5950,00
639,03	16383,00
639,48	16383,00
639,92	11524,00
640,37	3044,00
640,81	1236,00
641,26	887,00
641,71	746,00
642,15	690,00
642,60	682,00
643,04	709,00
643,49	748,00
643,94	759,00
644,38	696,00
644,83	672,00
645,27	650,00
645,72	666,00
646,16	673,00
646,61	670,00
647,06	646,00
647,50	667,00
647,95	725,00
648,39	876,00
648,84	1521,00
649,28	4603,00
649,73	10869,00
650,17	8376,00
650,62	2551,00
651,06	1079,00
651,51	909,00
651,95	1444,00
652,40	2409,00
652,85	1869,00
653,29	978,00
653,74	717,00
654,18	650,00
654,63	634,00
655,07	688,00
655,52	678,00
655,96	645,00
656,41	656,00
656,85	652,00
657,30	692,00
657,74	737,00
658,19	1016,00
658,63	2791,00
659,08	4920,00
659,52	3234,00
659,97	1268,00
660,41	789,00
660,86	684,00
661,30	652,00
661,74	645,00
662,19	662,00
662,63	629,00
663,08	623,00
663,52	645,00
663,97	659,00
664,41	674,00
664,86	705,00
665,30	766,00
665,75	999,00
666,19	1889,00
666,63	7837,00
667,08	12648,00
667,52	6671,00
667,97	1970,00
668,41	930,00
668,86	760,00
669,30	732,00
669,75	805,00
670,19	1246,00
670,63	3684,00
671,08	4520,00
671,52	2088,00
671,97	930,00
672,41	688,00
672,85	674,00
673,30	649,00
673,74	621,00
674,19	625,00
674,63	639,00
675,07	625,00
675,52	622,00
675,96	613,00
676,41	610,00
676,85	602,00
677,29	603,00
677,74	607,00
678,18	620,00
678,63	602,00
679,07	606,00
679,51	611,00
679,96	618,00
680,40	584,00
680,84	600,00
681,29	609,00
681,73	619,00
682,17	605,00
682,62	601,00
683,06	599,00
683,50	614,00
683,95	600,00
684,39	604,00
684,84	615,00
685,28	612,00
685,72	610,00
686,17	612,00
686,61	625,00
687,05	632,00
687,49	615,00
687,94	608,00
688,38	624,00
688,82	617,00
689,27	627,00
689,71	645,00
690,15	628,00
690,60	688,00
691,04	757,00
691,48	1152,00
691,93	3750,00
692,37	4892,00
692,81	2328,00
693,25	979,00
693,70	714,00
694,14	630,00
694,58	640,00
695,03	617,00
695,47	604,00
695,91	623,00
696,35	622,00
696,80	626,00
697,24	641,00
697,68	639,00
698,13	620,00
698,57	620,00
699,01	627,00
699,45	634,00
699,90	646,00
700,34	647,00
700,78	728,00
701,22	860,00
701,67	1314,00
702,11	4657,00
702,55	8313,00
702,99	5238,00
703,43	1783,00
703,88	921,00
704,32	833,00
704,76	947,00
705,20	1731,00
705,65	4098,00
706,09	4070,00
706,53	1825,00
706,97	832,00
707,41	686,00
707,86	643,00
708,30	627,00
708,74	615,00
709,18	617,00
709,62	634,00
710,07	595,00
710,51	609,00
710,95	612,00
711,39	618,00
711,83	599,00
712,28	589,00
712,72	588,00
713,16	625,00
713,60	601,00
714,04	597,00
714,48	617,00
714,93	620,00
715,37	639,00
715,81	601,00
716,25	866,00
716,69	1180,00
717,13	991,00
717,57	693,00
718,02	620,00
718,46	637,00
718,90	621,00
719,34	617,00
719,78	613,00
720,22	622,00
720,66	614,00
721,11	605,00
721,55	635,00
721,99	644,00
722,43	662,00
722,87	708,00
723,31	1590,00
723,75	3210,00
724,19	3010,00
724,63	1448,00
725,08	773,00
725,52	674,00
725,96	650,00
726,40	643,00
726,84	869,00
727,28	1589,00
727,72	1726,00
728,16	1080,00
728,60	688,00
729,04	641,00
729,48	633,00
729,93	672,00
730,37	652,00
730,81	613,00
731,25	604,00
731,69	600,00
732,13	605,00
732,57	617,00
733,01	609,00
733,45	597,00
733,89	609,00
734,33	604,00
734,77	605,00
735,21	594,00
735,65	614,00
736,09	601,00
736,53	600,00
736,97	603,00
737,41	602,00
737,85	596,00
738,29	589,00
738,73	595,00
739,18	608,00
739,62	589,00
740,06	594,00
740,50	604,00
740,94	606,00
741,38	605,00
741,82	618,00
742,26	600,00
742,70	763,00
743,14	1066,00
743,58	1055,00
744,02	797,00
744,46	624,00
744,90	616,00
745,34	625,00
745,77	619,00
746,21	624,00
746,65	644,00
747,09	642,00
747,53	668,00
747,97	856,00
748,41	1008,00
748,85	832,00
749,29	677,00
749,73	618,00
750,17	602,00
750,61	596,00
751,05	585,00
751,49	621,00
751,93	625,00
752,37	695,00
752,81	875,00
753,25	990,00
753,69	897,00
754,13	751,00
754,57	659,00
755,00	617,00
755,44	616,00
755,88	591,00
756,32	570,00
756,76	602,00
757,20	597,00
757,64	582,00
758,08	604,00
758,52	601,00
758,96	601,00
759,40	595,00
759,83	596,00
760,27	597,00
760,71	605,00
761,15	621,00
761,59	608,00
762,03	616,00
762,47	608,00
762,91	595,00
763,35	611,00
763,78	599,00
764,22	606,00
764,66	615,00
765,10	611,00
765,54	589,00
765,98	608,00
766,42	610,00
766,85	600,00
767,29	616,00
767,73	611,00
768,17	596,00
768,61	611,00
769,05	610,00
769,48	607,00
769,92	582,00
770,36	585,00
770,80	613,00
771,24	599,00
771,68	602,00
772,11	599,00
772,55	593,00
772,99	607,00
773,43	615,00
773,87	594,00
774,31	606,00
774,74	605,00
775,18	595,00
775,62	604,00
776,06	603,00
776,50	594,00
776,93	593,00
777,37	596,00
777,81	615,00
778,25	596,00
778,68	600,00
779,12	607,00
779,56	600,00
780,00	609,00
780,44	595,00
780,87	610,00
781,31	612,00
781,75	594,00
782,19	592,00
782,62	607,00
783,06	592,00
783,50	614,00
783,94	592,00
784,37	619,00
784,81	614,00
785,25	598,00
785,69	587,00
786,12	610,00
786,56	620,00
787,00	594,00
787,44	600,00
787,87	620,00
788,31	638,00
788,75	608,00
789,18	584,00
789,62	604,00
790,06	617,00
790,50	590,00
790,93	598,00
791,37	601,00
791,81	596,00
792,24	598,00
792,68	596,00
793,12	616,00
793,55	660,00
793,99	636,00
794,43	623,00
794,86	621,00
795,30	596,00
795,74	598,00
796,18	585,00
796,61	589,00
797,05	611,00
797,49	583,00
797,92	604,00
798,36	624,00
798,80	613,00
799,23	590,00
799,67	589,00
800,10	600,00
800,54	615,00
800,98	600,00
801,41	596,00
801,85	606,00
802,29	606,00
802,72	594,00
803,16	615,00
803,60	612,00
804,03	607,00
804,47	609,00
804,90	611,00
805,34	598,00
805,78	601,00
806,21	593,00
806,65	598,00
807,09	604,00
807,52	599,00
807,96	584,00
808,39	597,00
808,83	603,00
809,27	606,00
809,70	576,00
810,14	588,00
810,57	619,00
811,01	617,00
811,44	596,00
811,88	606,00
812,32	635,00
812,75	659,00
813,19	662,00
813,62	624,00
814,06	634,00
814,49	604,00
814,93	604,00
815,37	608,00
815,80	615,00
816,24	606,00
816,67	586,00
817,11	591,00
817,54	614,00
817,98	598,00
818,41	601,00
818,85	598,00
819,28	609,00
819,72	614,00
820,15	594,00
820,59	594,00
821,03	613,00
821,46	590,00
821,90	581,00
822,33	582,00
822,77	619,00
823,20	597,00
823,64	601,00
824,07	596,00
824,51	632,00
824,94	598,00
825,38	611,00
825,81	632,00
826,25	636,00
826,68	614,00
827,12	613,00
827,55	616,00
827,99	596,00
828,42	602,00
828,85	623,00
829,29	682,00
829,72	678,00
830,16	656,00
830,59	616,00
831,03	606,00
831,46	610,00
831,90	592,00
832,33	591,00
832,77	601,00
833,20	612,00
833,63	606,00
834,07	596,00
834,50	614,00
834,94	623,00
835,37	596,00
835,81	610,00
836,24	632,00
836,67	792,00
837,11	951,00
837,54	879,00
837,98	818,00
838,41	702,00
838,85	605,00
839,28	597,00
839,71	612,00
840,15	603,00
840,58	629,00
841,02	632,00
841,45	649,00
841,88	652,00
842,32	612,00
842,75	608,00
843,19	615,00
843,62	598,00
844,05	593,00
844,49	598,00
844,92	600,00
845,35	617,00
845,79	608,00
846,22	596,00
846,65	614,00
847,09	621,00
847,52	603,00
847,96	613,00
848,39	698,00
848,82	798,00
849,26	744,00
849,69	700,00
850,12	662,00
850,56	604,00
850,99	602,00
851,42	599,00
851,86	612,00
852,29	602,00
852,72	589,00
853,16	607,00
853,59	609,00
854,02	612,00
854,46	598,00
854,89	600,00
855,32	602,00
855,75	597,00
856,19	601,00
856,62	596,00
857,05	618,00
857,49	625,00
857,92	597,00
858,35	669,00
858,78	698,00
859,22	631,00
859,65	626,00
860,08	615,00
860,52	613,00
860,95	613,00
861,38	596,00
861,81	610,00
862,25	629,00
862,68	659,00
863,11	663,00
863,54	635,00
863,98	634,00
864,41	708,00
864,84	747,00
865,27	691,00
865,71	683,00
866,14	643,00
866,57	624,00
867,00	627,00
867,44	632,00
867,87	632,00
868,30	617,00
868,73	626,00
869,16	609,00
869,60	614,00
870,03	588,00
870,46	604,00
870,89	605,00
871,33	596,00
871,76	606,00
872,19	601,00
872,62	594,00
873,05	610,00
873,49	592,00
873,92	586,00
874,35	603,00
874,78	599,00
875,21	602,00
875,64	597,00
876,08	622,00
876,51	610,00
876,94	656,00
877,37	744,00
877,80	741,00
878,23	680,00
878,67	629,00
879,10	640,00
879,53	620,00
879,96	597,00
880,39	608,00
880,82	609,00
881,25	610,00
881,69	598,00
882,12	607,00
882,55	624,00
882,98	608,00
883,41	631,00
883,84	588,00
884,27	625,00
884,70	656,00
885,14	624,00
885,57	628,00
886,00	638,00
886,43	617,00
886,86	606,00
887,29	596,00
887,72	612,00
888,15	580,00
888,58	593,00
889,02	584,00
889,45	605,00
889,88	595,00
890,31	609,00
890,74	606,00
891,17	613,00
891,60	604,00
892,03	603,00
892,46	583,00
892,89	602,00
893,32	604,00
893,75	614,00
894,18	598,00
894,61	621,00
895,05	598,00
895,48	600,00
895,91	606,00
896,34	593,00
896,77	597,00
897,20	602,00
897,63	596,00
898,06	613,00
898,49	596,00
898,92	582,00
899,35	601,00
899,78	604,00
900,21	606,00
900,64	592,00
901,07	590,00
901,50	604,00
901,93	613,00
902,36	588,00
902,79	607,00
903,22	616,00
903,65	592,00
904,08	571,00
904,51	597,00
904,94	625,00
905,37	592,00
905,80	598,00
906,23	609,00
906,66	616,00
907,09	627,00
907,52	600,00
907,95	583,00
908,38	616,00
908,81	608,00
909,24	593,00
909,67	606,00
910,10	608,00
910,53	605,00
910,96	601,00
911,38	593,00
911,81	613,00
912,24	612,00
912,67	597,00
913,10	599,00
913,53	610,00
913,96	606,00
914,39	608,00
914,82	616,00
915,25	612,00
915,68	601,00
916,11	601,00
916,54	603,00
916,97	617,00
917,39	596,00
917,82	601,00
918,25	610,00
918,68	618,00
919,11	606,00
919,54	597,00
919,97	613,00
920,40	603,00
920,83	593,00
921,25	605,00
921,68	609,00
922,11	607,00
922,54	603,00
922,97	598,00
923,40	608,00
923,83	582,00
924,26	596,00
924,68	585,00
925,11	614,00
925,54	616,00
925,97	606,00
926,40	611,00
926,83	595,00
927,26	619,00
927,68	596,00
928,11	582,00
928,54	592,00
928,97	608,00
929,40	606,00
929,83	591,00
930,25	592,00
930,68	605,00
931,11	587,00
931,54	600,00
931,97	614,00
932,39	613,00
932,82	595,00
933,25	608,00
933,68	613,00
934,11	606,00
934,53	601,00
934,96	604,00
935,39	607,00
935,82	610,00
936,25	596,00
936,67	612,00
937,10	612,00
937,53	594,00
937,96	585,00
938,38	609,00
938,81	619,00
939,24	619,00
939,67	593,00
940,10	616,00
940,52	606,00
940,95	621,00
941,38	599,00
941,81	594,00
942,23	615,00
942,66	584,00
943,09	607,00
943,51	600,00
943,94	598,00
944,37	612,00
944,80	585,00
945,22	606,00
945,65	600,00
946,08	598,00
946,51	593,00
946,93	606,00
947,36	623,00
947,79	606,00
948,21	612,00
948,64	610,00
949,07	626,00
949,49	598,00
949,92	584,00
950,35	602,00
950,78	613,00
951,20	605,00
951,63	592,00
952,06	594,00
952,48	603,00
952,91	615,00
953,34	598,00
953,76	610,00
954,19	612,00
954,62	600,00
955,04	614,00
955,47	604,00
955,90	618,00
956,32	593,00
956,75	592,00
957,18	600,00
957,60	619,00
958,03	603,00
958,45	598,00
958,88	613,00
959,31	609,00
959,73	596,00
960,16	606,00
960,59	610,00
961,01	615,00
961,44	604,00
961,86	588,00
962,29	611,00
962,72	605,00
963,14	612,00
963,57	604,00
963,99	593,00
964,42	605,00
964,85	595,00
965,27	587,00
965,70	612,00
966,12	620,00
966,55	611,00
966,98	596,00
967,40	588,00
967,83	605,00
968,25	596,00
968,68	592,00
969,10	609,00
969,53	602,00
969,96	616,00
970,38	588,00
970,81	606,00
971,23	614,00
971,66	600,00
972,08	604,00
972,51	599,00
972,93	618,00
973,36	606,00
973,78	596,00
974,21	624,00
974,64	615,00
975,06	582,00
975,49	589,00
975,91	602,00
976,34	607,00
976,76	607,00
977,19	604,00
977,61	617,00
978,04	611,00
978,46	600,00
978,89	596,00
979,31	629,00
979,74	598,00
980,16	602,00
980,59	585,00
981,01	591,00
981,44	598,00
981,86	594,00
982,29	586,00
982,71	612,00
983,14	614,00
983,56	592,00
983,98	594,00
984,41	597,00
984,83	608,00
985,26	611,00
985,68	598,00
986,11	612,00
986,53	608,00
986,96	586,00
987,38	597,00
987,81	621,00
988,23	590,00
988,65	596,00
989,08	608,00
989,50	607,00
989,93	608,00
990,35	578,00
990,78	590,00
991,20	626,00
991,62	597,00
992,05	610,00
992,47	600,00
992,90	608,00
993,32	599,00
993,74	585,00
994,17	583,00
994,59	604,00
995,02	597,00
995,44	595,00
995,86	615,00
996,29	602,00
996,71	605,00
997,13	599,00
997,56	596,00
997,98	602,00
998,41	615,00
998,83	578,00
999,25	616,00
999,68	613,00
1000,10	578,00
1000,52	590,00
1000,95	592,00
1001,37	610,00
1001,79	587,00
1002,22	603,00
1002,64	605,00
1003,06	617,00
1003,49	612,00
1003,91	602,00
1004,33	599,00
1004,76	604,00
1005,18	600,00
1005,60	600,00
1006,03	603,00
1006,45	610,00
1006,87	612,00
1007,30	596,00
1007,72	603,00
1008,14	596,00
1008,57	593,00
1008,99	588,00
1009,41	598,00
1009,83	608,00
1010,26	585,00
1010,68	598,00
1011,10	588,00
1011,53	607,00
1011,95	588,00
1012,37	606,00
1012,79	599,00
1013,22	611,00
1013,64	610,00
1014,06	612,00
1014,48	580,00
1014,91	599,00
1015,33	602,00
1015,75	581,00
1016,17	604,00
1016,60	629,00
1017,02	608,00
1017,44	609,00
1017,86	593,00
1018,29	600,00
1018,71	580,00
1019,13	616,00
1019,55	609,00
1019,98	612,00
1020,40	586,00
1020,82	587,00
1021,24	608,00
1021,66	608,00
1022,09	596,00
1022,51	589,00
1022,93	600,00
1023,35	601,00
1023,77	594,00
1024,20	601,00
1024,62	602,00
1025,04	605,00
1025,46	602,00
1025,88	585,00
1026,31	594,00
1026,73	608,00
1027,15	594,00
1027,57	590,00
1027,99	595,00
1028,41	606,00
1028,84	584,00
1029,26	608,00
1029,68	603,00
1030,10	639,00
1030,52	607,00
1030,94	588,00
1031,36	610,00
1031,79	597,00
1032,21	604,00
1032,63	598,00
1033,05	604,00
1033,47	598,00
1033,89	597,00
1034,31	588,00
1034,73	588,00
1035,16	618,00
1035,58	595,00
1036,00	593,00
1036,42	608,00
1036,84	614,00
1037,26	590,00
1037,68	596,00
1038,10	616,00
1038,52	606,00
1038,95	608,00
1039,37	592,00
1039,79	600,00
1040,21	581,00
1040,63	600,00
1041,05	600,00
1041,47	607,00
1041,89	610,00
1042,31	590,00
1042,73	591,00
1043,15	597,00
1043,57	595,00
1043,99	562,00
1044,41	611,00
1044,83	618,00
1045,26	580,00
1045,68	592,00
1046,10	610,00
1046,52	619,00
1046,94	580,00
1047,36	600,00
1047,78	613,00
1048,20	611,00
1048,62	615,00
1049,04	601,00
1049,46	596,00
1049,88	599,00
1050,30	614,00
1050,72	596,00
1051,14	582,00
1051,56	621,00
1051,98	592,00
1052,40	592,00
1052,82	588,00
1053,24	610,00
1053,66	588,00
1054,08	604,00
1054,50	605,00
1054,92	607,00
1055,34	603,00
1055,76	593,00
1056,18	609,00
1056,60	615,00
1057,02	604,00
1057,44	597,00
1057,86	592,00
1058,28	612,00
1058,69	591,00
1059,11	590,00
1059,53	582,00
1059,95	612,00
1060,37	593,00
1060,79	598,00
1061,21	606,00
1061,63	617,00
1062,05	595,00
1062,47	614,00
1062,89	620,00
1063,31	615,00
1063,73	599,00
1064,15	601,00
1064,56	582,00
1064,98	599,00
1065,40	601,00
1065,82	589,00
1066,24	603,00
1066,66	600,00
1067,08	595,00
1067,50	598,00
1067,92	609,00
1068,34	590,00
1068,75	584,00
1069,17	617,00
1069,59	595,00
1070,01	616,00
1070,43	614,00
1070,85	596,00
1071,27	611,00
1071,69	616,00
1072,10	600,00
1072,52	592,00
1072,94	602,00
1073,36	613,00
1073,78	592,00
1074,20	582,00
1074,61	602,00
1075,03	618,00
1075,45	589,00
1075,87	598,00
1076,29	602,00
1076,71	599,00
1077,12	598,00
1077,54	590,00
1077,96	610,00
1078,38	596,00
1078,80	591,00
1079,22	602,00
1079,63	619,00
1080,05	589,00
1080,47	591,00
1080,89	593,00
1081,31	614,00
1081,72	607,00
1082,14	617,00
1082,56	617,00
1082,98	628,00
1083,39	602,00
1083,81	596,00
1084,23	598,00
1084,65	604,00
1085,07	610,00
1085,48	606,00
1085,90	585,00
1086,32	606,00
1086,74	608,00
1087,15	591,00
1087,57	602,00
1087,99	597,00
1088,41	603,00
1088,82	574,00
1089,24	603,00
1089,66	599,00
1090,08	607,00
1090,49	592,00
1090,91	596,00
1091,33	609,00
1091,74	591,00
1092,16	592,00
1092,58	599,00
1093,00	599,00
1093,41	601,00
1093,83	587,00
1094,25	578,00
1094,66	602,00
1095,08	610,00
1095,50	602,00
1095,91	584,00
1096,33	596,00
1096,75	603,00
1097,17	589,00
1097,58	586,00
1098,00	597,00
1098,42	607,00
>>>>>End Processed Spectral Data<<<<<
