SpectraSuite Datei
++++++++++++++++++++++++++++++++++++
Datum: Fri Jul 11 03:56:45 CEST 2008
Benutzer: fwtmess
Dark-Spektrum vorhanden: Nein
Referenz-Spektrum vorhanden: Nein
Zahl der probierten Teilspektren: 1
Spektrometer: HR+C1743
Integrationszeit (usec): 8000 (HR+C1743)
Spektren Durchschnitt berechnet: 1 (HR+C1743)
Boxcar Glättung: 0 (HR+C1743)
Dunkelstromkorrektur: Nein (HR+C1743)
Puls/Lampe aktiviert: Nein (HR+C1743)
Correct for Detector Non-linearity: Nein (HR+C1743)
Streulichtkorrektur: Nein (HR+C1743)
Anzahl Pixel in verarbeitetem Spektrum: 2048
>>>>>Begin Processed Spectral Data<<<<<
189,03	597,00
189,49	594,00
189,96	594,00
190,43	598,00
190,90	598,00
191,37	603,00
191,84	598,00
192,31	597,00
192,78	604,00
193,24	597,00
193,71	602,00
194,18	610,00
194,65	606,00
195,12	605,00
195,59	611,00
196,06	609,00
196,52	611,00
196,99	590,00
197,46	592,00
197,93	595,00
198,40	604,00
198,87	599,00
199,34	597,00
199,80	614,00
200,27	600,00
200,74	596,00
201,21	597,00
201,68	597,00
202,15	603,00
202,61	593,00
203,08	591,00
203,55	604,00
204,02	582,00
204,49	582,00
204,96	589,00
205,42	579,00
205,89	605,00
206,36	591,00
206,83	596,00
207,30	605,00
207,76	596,00
208,23	605,00
208,70	587,00
209,17	596,00
209,64	618,00
210,10	594,00
210,57	590,00
211,04	603,00
211,51	604,00
211,98	576,00
212,44	600,00
212,91	603,00
213,38	615,00
213,85	604,00
214,31	604,00
214,78	603,00
215,25	617,00
215,72	598,00
216,19	602,00
216,65	602,00
217,12	596,00
217,59	601,00
218,06	584,00
218,52	609,00
218,99	615,00
219,46	589,00
219,93	610,00
220,39	616,00
220,86	600,00
221,33	609,00
221,80	595,00
222,26	610,00
222,73	601,00
223,20	589,00
223,66	596,00
224,13	628,00
224,60	598,00
225,07	580,00
225,53	601,00
226,00	602,00
226,47	582,00
226,94	599,00
227,40	587,00
227,87	601,00
228,34	613,00
228,80	597,00
229,27	587,00
229,74	604,00
230,21	604,00
230,67	590,00
231,14	595,00
231,61	599,00
232,07	604,00
232,54	615,00
233,01	602,00
233,47	604,00
233,94	592,00
234,41	604,00
234,87	606,00
235,34	610,00
235,81	609,00
236,27	594,00
236,74	601,00
237,21	612,00
237,67	594,00
238,14	599,00
238,61	607,00
239,07	595,00
239,54	603,00
240,01	594,00
240,47	602,00
240,94	624,00
241,41	607,00
241,87	586,00
242,34	599,00
242,81	604,00
243,27	590,00
243,74	581,00
244,21	594,00
244,67	593,00
245,14	589,00
245,60	602,00
246,07	595,00
246,54	612,00
247,00	586,00
247,47	598,00
247,94	613,00
248,40	620,00
248,87	586,00
249,33	600,00
249,80	593,00
250,27	617,00
250,73	604,00
251,20	597,00
251,66	609,00
252,13	606,00
252,60	595,00
253,06	609,00
253,53	606,00
253,99	615,00
254,46	591,00
254,93	620,00
255,39	592,00
255,86	621,00
256,32	600,00
256,79	596,00
257,26	606,00
257,72	611,00
258,19	594,00
258,65	600,00
259,12	591,00
259,58	605,00
260,05	605,00
260,51	604,00
260,98	602,00
261,45	617,00
261,91	592,00
262,38	580,00
262,84	623,00
263,31	613,00
263,77	605,00
264,24	600,00
264,70	602,00
265,17	601,00
265,63	600,00
266,10	595,00
266,57	600,00
267,03	607,00
267,50	587,00
267,96	587,00
268,43	608,00
268,89	604,00
269,36	603,00
269,82	582,00
270,29	623,00
270,75	605,00
271,22	599,00
271,68	584,00
272,15	603,00
272,61	604,00
273,08	582,00
273,54	601,00
274,01	616,00
274,47	611,00
274,94	580,00
275,40	595,00
275,87	586,00
276,33	602,00
276,80	612,00
277,26	607,00
277,73	615,00
278,19	605,00
278,66	585,00
279,12	596,00
279,59	608,00
280,05	580,00
280,52	607,00
280,98	596,00
281,44	623,00
281,91	628,00
282,37	594,00
282,84	580,00
283,30	604,00
283,77	617,00
284,23	603,00
284,70	609,00
285,16	619,00
285,62	600,00
286,09	603,00
286,55	590,00
287,02	604,00
287,48	594,00
287,95	600,00
288,41	595,00
288,88	610,00
289,34	602,00
289,80	604,00
290,27	601,00
290,73	608,00
291,20	609,00
291,66	590,00
292,12	591,00
292,59	604,00
293,05	598,00
293,52	588,00
293,98	614,00
294,44	613,00
294,91	598,00
295,37	601,00
295,84	605,00
296,30	604,00
296,76	590,00
297,23	588,00
297,69	599,00
298,16	625,00
298,62	610,00
299,08	604,00
299,55	604,00
300,01	612,00
300,47	598,00
300,94	608,00
301,40	598,00
301,87	607,00
302,33	607,00
302,79	612,00
303,26	604,00
303,72	599,00
304,18	591,00
304,65	613,00
305,11	609,00
305,57	612,00
306,04	605,00
306,50	621,00
306,96	621,00
307,43	621,00
307,89	592,00
308,35	588,00
308,82	610,00
309,28	615,00
309,74	622,00
310,21	600,00
310,67	619,00
311,13	598,00
311,60	592,00
312,06	607,00
312,52	586,00
312,99	613,00
313,45	594,00
313,91	599,00
314,38	619,00
314,84	599,00
315,30	618,00
315,76	606,00
316,23	594,00
316,69	618,00
317,15	611,00
317,62	610,00
318,08	604,00
318,54	603,00
319,00	606,00
319,47	614,00
319,93	604,00
320,39	596,00
320,86	603,00
321,32	582,00
321,78	597,00
322,24	594,00
322,71	607,00
323,17	604,00
323,63	615,00
324,09	589,00
324,56	602,00
325,02	598,00
325,48	612,00
325,94	596,00
326,41	596,00
326,87	602,00
327,33	603,00
327,79	611,00
328,26	593,00
328,72	589,00
329,18	623,00
329,64	607,00
330,11	589,00
330,57	604,00
331,03	581,00
331,49	608,00
331,95	599,00
332,42	610,00
332,88	613,00
333,34	607,00
333,80	609,00
334,27	592,00
334,73	607,00
335,19	608,00
335,65	607,00
336,11	598,00
336,58	612,00
337,04	600,00
337,50	597,00
337,96	603,00
338,42	613,00
338,88	598,00
339,35	615,00
339,81	608,00
340,27	607,00
340,73	598,00
341,19	602,00
341,66	597,00
342,12	614,00
342,58	594,00
343,04	601,00
343,50	597,00
343,96	604,00
344,43	610,00
344,89	605,00
345,35	606,00
345,81	607,00
346,27	610,00
346,73	604,00
347,19	594,00
347,66	598,00
348,12	615,00
348,58	603,00
349,04	617,00
349,50	610,00
349,96	615,00
350,42	602,00
350,88	607,00
351,35	612,00
351,81	578,00
352,27	600,00
352,73	600,00
353,19	603,00
353,65	604,00
354,11	594,00
354,57	600,00
355,04	624,00
355,50	599,00
355,96	590,00
356,42	606,00
356,88	616,00
357,34	597,00
357,80	598,00
358,26	603,00
358,72	607,00
359,18	608,00
359,64	595,00
360,11	619,00
360,57	597,00
361,03	589,00
361,49	606,00
361,95	612,00
362,41	613,00
362,87	593,00
363,33	588,00
363,79	602,00
364,25	623,00
364,71	589,00
365,17	604,00
365,63	605,00
366,09	599,00
366,55	595,00
367,01	598,00
367,48	618,00
367,94	611,00
368,40	596,00
368,86	598,00
369,32	613,00
369,78	606,00
370,24	592,00
370,70	602,00
371,16	583,00
371,62	596,00
372,08	604,00
372,54	595,00
373,00	616,00
373,46	607,00
373,92	592,00
374,38	605,00
374,84	618,00
375,30	610,00
375,76	599,00
376,22	602,00
376,68	602,00
377,14	603,00
377,60	592,00
378,06	604,00
378,52	610,00
378,98	596,00
379,44	576,00
379,90	593,00
380,36	608,00
380,82	595,00
381,28	592,00
381,74	601,00
382,20	610,00
382,66	600,00
383,12	582,00
383,58	609,00
384,04	602,00
384,50	606,00
384,96	604,00
385,41	589,00
385,87	609,00
386,33	594,00
386,79	606,00
387,25	600,00
387,71	605,00
388,17	605,00
388,63	601,00
389,09	596,00
389,55	595,00
390,01	619,00
390,47	603,00
390,93	600,00
391,39	615,00
391,85	608,00
392,31	590,00
392,76	581,00
393,22	608,00
393,68	594,00
394,14	594,00
394,60	598,00
395,06	603,00
395,52	602,00
395,98	603,00
396,44	602,00
396,90	617,00
397,36	595,00
397,81	600,00
398,27	597,00
398,73	622,00
399,19	594,00
399,65	600,00
400,11	612,00
400,57	606,00
401,03	597,00
401,48	596,00
401,94	601,00
402,40	619,00
402,86	596,00
403,32	612,00
403,78	612,00
404,24	606,00
404,70	589,00
405,15	617,00
405,61	607,00
406,07	605,00
406,53	597,00
406,99	586,00
407,45	614,00
407,90	618,00
408,36	588,00
408,82	624,00
409,28	605,00
409,74	597,00
410,20	588,00
410,65	597,00
411,11	595,00
411,57	614,00
412,03	598,00
412,49	598,00
412,95	612,00
413,40	603,00
413,86	575,00
414,32	589,00
414,78	603,00
415,24	610,00
415,69	590,00
416,15	591,00
416,61	607,00
417,07	628,00
417,53	598,00
417,98	603,00
418,44	619,00
418,90	594,00
419,36	585,00
419,82	600,00
420,27	622,00
420,73	602,00
421,19	578,00
421,65	583,00
422,10	621,00
422,56	609,00
423,02	595,00
423,48	595,00
423,93	606,00
424,39	616,00
424,85	596,00
425,31	596,00
425,76	608,00
426,22	614,00
426,68	585,00
427,14	606,00
427,59	604,00
428,05	600,00
428,51	598,00
428,97	596,00
429,42	603,00
429,88	615,00
430,34	588,00
430,80	596,00
431,25	606,00
431,71	598,00
432,17	596,00
432,62	584,00
433,08	606,00
433,54	600,00
434,00	599,00
434,45	606,00
434,91	607,00
435,37	592,00
435,82	583,00
436,28	602,00
436,74	625,00
437,20	597,00
437,65	603,00
438,11	587,00
438,57	600,00
439,02	595,00
439,48	606,00
439,94	594,00
440,39	600,00
440,85	600,00
441,31	589,00
441,76	585,00
442,22	605,00
442,68	589,00
443,13	600,00
443,59	605,00
444,05	617,00
444,50	596,00
444,96	607,00
445,42	598,00
445,87	604,00
446,33	592,00
446,79	612,00
447,24	587,00
447,70	607,00
448,15	599,00
448,61	580,00
449,07	602,00
449,52	608,00
449,98	587,00
450,44	584,00
450,89	601,00
451,35	622,00
451,80	592,00
452,26	594,00
452,72	602,00
453,17	605,00
453,63	610,00
454,08	603,00
454,54	593,00
455,00	605,00
455,45	596,00
455,91	604,00
456,36	617,00
456,82	611,00
457,28	580,00
457,73	607,00
458,19	608,00
458,64	607,00
459,10	590,00
459,56	605,00
460,01	599,00
460,47	594,00
460,92	589,00
461,38	599,00
461,83	606,00
462,29	600,00
462,75	587,00
463,20	585,00
463,66	604,00
464,11	606,00
464,57	591,00
465,02	592,00
465,48	602,00
465,93	596,00
466,39	595,00
466,84	584,00
467,30	604,00
467,76	603,00
468,21	602,00
468,67	598,00
469,12	586,00
469,58	598,00
470,03	594,00
470,49	599,00
470,94	612,00
471,40	615,00
471,85	588,00
472,31	594,00
472,76	598,00
473,22	602,00
473,67	598,00
474,13	596,00
474,58	608,00
475,04	598,00
475,49	588,00
475,95	600,00
476,40	610,00
476,86	603,00
477,31	582,00
477,77	586,00
478,22	617,00
478,68	608,00
479,13	607,00
479,59	592,00
480,04	612,00
480,50	599,00
480,95	584,00
481,41	590,00
481,86	603,00
482,31	602,00
482,77	597,00
483,22	609,00
483,68	598,00
484,13	602,00
484,59	601,00
485,04	607,00
485,50	608,00
485,95	580,00
486,40	592,00
486,86	604,00
487,31	606,00
487,77	606,00
488,22	609,00
488,68	575,00
489,13	601,00
489,58	594,00
490,04	596,00
490,49	596,00
490,95	610,00
491,40	594,00
491,86	586,00
492,31	606,00
492,76	596,00
493,22	587,00
493,67	602,00
494,13	589,00
494,58	606,00
495,03	597,00
495,49	590,00
495,94	586,00
496,39	598,00
496,85	601,00
497,30	614,00
497,76	611,00
498,21	594,00
498,66	594,00
499,12	608,00
499,57	605,00
500,02	606,00
500,48	601,00
500,93	594,00
501,39	598,00
501,84	616,00
502,29	596,00
502,75	587,00
503,20	617,00
503,65	610,00
504,11	592,00
504,56	592,00
505,01	599,00
505,47	592,00
505,92	586,00
506,37	602,00
506,83	613,00
507,28	610,00
507,73	584,00
508,19	582,00
508,64	614,00
509,09	616,00
509,55	609,00
510,00	594,00
510,45	610,00
510,90	599,00
511,36	604,00
511,81	595,00
512,26	598,00
512,72	602,00
513,17	607,00
513,62	594,00
514,08	597,00
514,53	603,00
514,98	576,00
515,43	592,00
515,89	615,00
516,34	601,00
516,79	596,00
517,25	602,00
517,70	606,00
518,15	620,00
518,60	583,00
519,06	582,00
519,51	611,00
519,96	604,00
520,41	588,00
520,87	590,00
521,32	603,00
521,77	592,00
522,22	602,00
522,68	588,00
523,13	599,00
523,58	587,00
524,03	588,00
524,49	587,00
524,94	610,00
525,39	606,00
525,84	574,00
526,29	588,00
526,75	594,00
527,20	606,00
527,65	594,00
528,10	596,00
528,56	614,00
529,01	612,00
529,46	586,00
529,91	598,00
530,36	600,00
530,82	592,00
531,27	605,00
531,72	582,00
532,17	605,00
532,62	604,00
533,08	586,00
533,53	584,00
533,98	609,00
534,43	590,00
534,88	602,00
535,33	601,00
535,79	599,00
536,24	604,00
536,69	580,00
537,14	601,00
537,59	606,00
538,04	601,00
538,50	586,00
538,95	622,00
539,40	598,00
539,85	580,00
540,30	594,00
540,75	604,00
541,21	621,00
541,66	595,00
542,11	588,00
542,56	603,00
543,01	596,00
543,46	602,00
543,91	602,00
544,36	611,00
544,82	598,00
545,27	590,00
545,72	604,00
546,17	588,00
546,62	593,00
547,07	600,00
547,52	600,00
547,97	600,00
548,43	601,00
548,88	596,00
549,33	608,00
549,78	603,00
550,23	596,00
550,68	593,00
551,13	574,00
551,58	616,00
552,03	617,00
552,48	598,00
552,93	588,00
553,39	602,00
553,84	617,00
554,29	598,00
554,74	604,00
555,19	606,00
555,64	618,00
556,09	600,00
556,54	584,00
556,99	594,00
557,44	614,00
557,89	600,00
558,34	600,00
558,79	630,00
559,24	613,00
559,69	588,00
560,14	583,00
560,59	598,00
561,04	610,00
561,50	599,00
561,95	594,00
562,40	614,00
562,85	605,00
563,30	590,00
563,75	598,00
564,20	613,00
564,65	602,00
565,10	582,00
565,55	596,00
566,00	603,00
566,45	603,00
566,90	604,00
567,35	600,00
567,80	615,00
568,25	607,00
568,70	597,00
569,15	598,00
569,60	601,00
570,05	610,00
570,50	604,00
570,95	596,00
571,40	611,00
571,85	616,00
572,30	588,00
572,75	577,00
573,20	605,00
573,65	601,00
574,09	588,00
574,54	591,00
574,99	610,00
575,44	610,00
575,89	577,00
576,34	584,00
576,79	604,00
577,24	594,00
577,69	595,00
578,14	595,00
578,59	604,00
579,04	595,00
579,49	587,00
579,94	590,00
580,39	606,00
580,84	595,00
581,29	593,00
581,74	606,00
582,18	592,00
582,63	602,00
583,08	600,00
583,53	595,00
583,98	603,00
584,43	594,00
584,88	591,00
585,33	583,00
585,78	598,00
586,23	587,00
586,68	592,00
587,12	597,00
587,57	598,00
588,02	591,00
588,47	588,00
588,92	606,00
589,37	612,00
589,82	620,00
590,27	594,00
590,71	599,00
591,16	605,00
591,61	605,00
592,06	592,00
592,51	603,00
592,96	613,00
593,41	609,00
593,86	595,00
594,30	592,00
594,75	612,00
595,20	608,00
595,65	597,00
596,10	592,00
596,55	597,00
596,99	567,00
597,44	594,00
597,89	590,00
598,34	601,00
598,79	592,00
599,24	601,00
599,68	601,00
600,13	601,00
600,58	583,00
601,03	576,00
601,48	587,00
601,93	606,00
602,37	593,00
602,82	583,00
603,27	610,00
603,72	614,00
604,17	591,00
604,61	583,00
605,06	597,00
605,51	601,00
605,96	594,00
606,40	604,00
606,85	614,00
607,30	610,00
607,75	594,00
608,20	594,00
608,64	607,00
609,09	601,00
609,54	593,00
609,99	606,00
610,43	612,00
610,88	606,00
611,33	574,00
611,78	596,00
612,22	594,00
612,67	602,00
613,12	587,00
613,57	610,00
614,01	587,00
614,46	600,00
614,91	596,00
615,36	594,00
615,80	604,00
616,25	611,00
616,70	594,00
617,15	601,00
617,59	611,00
618,04	600,00
618,49	592,00
618,93	602,00
619,38	602,00
619,83	605,00
620,28	600,00
620,72	594,00
621,17	611,00
621,62	603,00
622,06	595,00
622,51	593,00
622,96	612,00
623,40	611,00
623,85	588,00
624,30	599,00
624,75	629,00
625,19	621,00
625,64	600,00
626,09	619,00
626,53	629,00
626,98	613,00
627,43	609,00
627,87	631,00
628,32	653,00
628,77	633,00
629,21	636,00
629,66	660,00
630,11	687,00
630,55	798,00
631,00	1210,00
631,45	5020,00
631,89	15530,00
632,34	12076,00
632,78	3444,00
633,23	1147,00
633,68	786,00
634,12	666,00
634,57	630,00
635,02	633,00
635,46	623,00
635,91	616,00
636,35	600,00
636,80	607,00
637,25	602,00
637,69	606,00
638,14	605,00
638,58	583,00
639,03	611,00
639,48	608,00
639,92	590,00
640,37	601,00
640,81	600,00
641,26	617,00
641,71	605,00
642,15	606,00
642,60	613,00
643,04	625,00
643,49	617,00
643,94	597,00
644,38	616,00
644,83	597,00
645,27	601,00
645,72	601,00
646,16	614,00
646,61	586,00
647,06	585,00
647,50	602,00
647,95	597,00
648,39	607,00
648,84	599,00
649,28	593,00
649,73	594,00
650,17	605,00
650,62	601,00
651,06	605,00
651,51	612,00
651,95	600,00
652,40	588,00
652,85	612,00
653,29	616,00
653,74	590,00
654,18	616,00
654,63	594,00
655,07	594,00
655,52	579,00
655,96	590,00
656,41	584,00
656,85	598,00
657,30	581,00
657,74	574,00
658,19	599,00
658,63	612,00
659,08	593,00
659,52	587,00
659,97	589,00
660,41	607,00
660,86	587,00
661,30	603,00
661,74	614,00
662,19	601,00
662,63	596,00
663,08	604,00
663,52	596,00
663,97	593,00
664,41	576,00
664,86	595,00
665,30	600,00
665,75	595,00
666,19	580,00
666,63	584,00
667,08	599,00
667,52	604,00
667,97	587,00
668,41	605,00
668,86	602,00
669,30	599,00
669,75	592,00
670,19	580,00
670,63	607,00
671,08	602,00
671,52	583,00
671,97	577,00
672,41	607,00
672,85	585,00
673,30	586,00
673,74	592,00
674,19	595,00
674,63	601,00
675,07	594,00
675,52	605,00
675,96	603,00
676,41	593,00
676,85	592,00
677,29	599,00
677,74	598,00
678,18	599,00
678,63	590,00
679,07	608,00
679,51	610,00
679,96	597,00
680,40	588,00
680,84	594,00
681,29	614,00
681,73	616,00
682,17	606,00
682,62	597,00
683,06	610,00
683,50	599,00
683,95	588,00
684,39	595,00
684,84	592,00
685,28	582,00
685,72	587,00
686,17	594,00
686,61	620,00
687,05	603,00
687,49	597,00
687,94	580,00
688,38	598,00
688,82	594,00
689,27	597,00
689,71	600,00
690,15	593,00
690,60	603,00
691,04	590,00
691,48	590,00
691,93	609,00
692,37	594,00
692,81	597,00
693,25	601,00
693,70	608,00
694,14	586,00
694,58	595,00
695,03	610,00
695,47	597,00
695,91	596,00
696,35	598,00
696,80	592,00
697,24	614,00
697,68	581,00
698,13	594,00
698,57	597,00
699,01	607,00
699,45	602,00
699,90	603,00
700,34	592,00
700,78	603,00
701,22	583,00
701,67	586,00
702,11	598,00
702,55	601,00
702,99	586,00
703,43	588,00
703,88	591,00
704,32	602,00
704,76	597,00
705,20	597,00
705,65	590,00
706,09	602,00
706,53	594,00
706,97	598,00
707,41	597,00
707,86	607,00
708,30	592,00
708,74	600,00
709,18	597,00
709,62	590,00
710,07	587,00
710,51	596,00
710,95	605,00
711,39	592,00
711,83	578,00
712,28	573,00
712,72	605,00
713,16	592,00
713,60	601,00
714,04	598,00
714,48	593,00
714,93	597,00
715,37	580,00
715,81	589,00
716,25	612,00
716,69	613,00
717,13	605,00
717,57	605,00
718,02	596,00
718,46	612,00
718,90	599,00
719,34	589,00
719,78	614,00
720,22	601,00
720,66	612,00
721,11	605,00
721,55	607,00
721,99	618,00
722,43	604,00
722,87	605,00
723,31	606,00
723,75	593,00
724,19	598,00
724,63	581,00
725,08	602,00
725,52	608,00
725,96	592,00
726,40	585,00
726,84	592,00
727,28	604,00
727,72	582,00
728,16	586,00
728,60	592,00
729,04	606,00
729,48	595,00
729,93	600,00
730,37	599,00
730,81	586,00
731,25	593,00
731,69	609,00
732,13	609,00
732,57	578,00
733,01	598,00
733,45	622,00
733,89	596,00
734,33	589,00
734,77	600,00
735,21	588,00
735,65	603,00
736,09	596,00
736,53	592,00
736,97	593,00
737,41	612,00
737,85	611,00
738,29	589,00
738,73	608,00
739,18	605,00
739,62	594,00
740,06	599,00
740,50	623,00
740,94	595,00
741,38	593,00
741,82	594,00
742,26	597,00
742,70	614,00
743,14	583,00
743,58	611,00
744,02	607,00
744,46	612,00
744,90	596,00
745,34	588,00
745,77	598,00
746,21	613,00
746,65	597,00
747,09	593,00
747,53	604,00
747,97	612,00
748,41	595,00
748,85	582,00
749,29	595,00
749,73	603,00
750,17	581,00
750,61	605,00
751,05	597,00
751,49	608,00
751,93	592,00
752,37	581,00
752,81	605,00
753,25	604,00
753,69	596,00
754,13	592,00
754,57	605,00
755,00	598,00
755,44	593,00
755,88	580,00
756,32	610,00
756,76	596,00
757,20	601,00
757,64	589,00
758,08	613,00
758,52	611,00
758,96	597,00
759,40	596,00
759,83	602,00
760,27	629,00
760,71	613,00
761,15	597,00
761,59	586,00
762,03	597,00
762,47	592,00
762,91	588,00
763,35	619,00
763,78	610,00
764,22	596,00
764,66	600,00
765,10	600,00
765,54	606,00
765,98	596,00
766,42	599,00
766,85	602,00
767,29	600,00
767,73	557,00
768,17	601,00
768,61	592,00
769,05	596,00
769,48	589,00
769,92	594,00
770,36	588,00
770,80	608,00
771,24	584,00
771,68	598,00
772,11	594,00
772,55	612,00
772,99	607,00
773,43	569,00
773,87	596,00
774,31	604,00
774,74	598,00
775,18	590,00
775,62	597,00
776,06	587,00
776,50	596,00
776,93	597,00
777,37	605,00
777,81	586,00
778,25	594,00
778,68	598,00
779,12	603,00
779,56	597,00
780,00	587,00
780,44	608,00
780,87	609,00
781,31	594,00
781,75	587,00
782,19	583,00
782,62	608,00
783,06	580,00
783,50	589,00
783,94	607,00
784,37	591,00
784,81	598,00
785,25	575,00
785,69	584,00
786,12	590,00
786,56	596,00
787,00	586,00
787,44	596,00
787,87	603,00
788,31	586,00
788,75	595,00
789,18	600,00
789,62	607,00
790,06	602,00
790,50	594,00
790,93	616,00
791,37	608,00
791,81	600,00
792,24	591,00
792,68	601,00
793,12	629,00
793,55	586,00
793,99	584,00
794,43	600,00
794,86	605,00
795,30	601,00
795,74	620,00
796,18	602,00
796,61	610,00
797,05	602,00
797,49	588,00
797,92	582,00
798,36	601,00
798,80	595,00
799,23	593,00
799,67	603,00
800,10	601,00
800,54	592,00
800,98	583,00
801,41	611,00
801,85	598,00
802,29	587,00
802,72	586,00
803,16	599,00
803,60	592,00
804,03	579,00
804,47	579,00
804,90	605,00
805,34	608,00
805,78	590,00
806,21	580,00
806,65	597,00
807,09	597,00
807,52	587,00
807,96	598,00
808,39	605,00
808,83	607,00
809,27	597,00
809,70	599,00
810,14	590,00
810,57	610,00
811,01	605,00
811,44	596,00
811,88	600,00
812,32	596,00
812,75	592,00
813,19	597,00
813,62	615,00
814,06	599,00
814,49	588,00
814,93	595,00
815,37	606,00
815,80	612,00
816,24	599,00
816,67	610,00
817,11	615,00
817,54	606,00
817,98	604,00
818,41	600,00
818,85	589,00
819,28	592,00
819,72	592,00
820,15	599,00
820,59	623,00
821,03	598,00
821,46	596,00
821,90	594,00
822,33	624,00
822,77	600,00
823,20	592,00
823,64	600,00
824,07	617,00
824,51	602,00
824,94	589,00
825,38	584,00
825,81	606,00
826,25	581,00
826,68	577,00
827,12	602,00
827,55	609,00
827,99	606,00
828,42	577,00
828,85	604,00
829,29	615,00
829,72	585,00
830,16	584,00
830,59	579,00
831,03	607,00
831,46	597,00
831,90	598,00
832,33	587,00
832,77	600,00
833,20	584,00
833,63	606,00
834,07	602,00
834,50	610,00
834,94	600,00
835,37	602,00
835,81	608,00
836,24	613,00
836,67	607,00
837,11	592,00
837,54	613,00
837,98	614,00
838,41	594,00
838,85	610,00
839,28	597,00
839,71	613,00
840,15	604,00
840,58	603,00
841,02	604,00
841,45	594,00
841,88	597,00
842,32	580,00
842,75	604,00
843,19	600,00
843,62	594,00
844,05	600,00
844,49	617,00
844,92	614,00
845,35	591,00
845,79	597,00
846,22	606,00
846,65	598,00
847,09	581,00
847,52	595,00
847,96	620,00
848,39	614,00
848,82	594,00
849,26	604,00
849,69	596,00
850,12	583,00
850,56	600,00
850,99	605,00
851,42	589,00
851,86	632,00
852,29	590,00
852,72	575,00
853,16	623,00
853,59	597,00
854,02	601,00
854,46	579,00
854,89	606,00
855,32	594,00
855,75	585,00
856,19	588,00
856,62	611,00
857,05	608,00
857,49	603,00
857,92	603,00
858,35	615,00
858,78	611,00
859,22	605,00
859,65	607,00
860,08	623,00
860,52	616,00
860,95	602,00
861,38	586,00
861,81	615,00
862,25	598,00
862,68	600,00
863,11	584,00
863,54	609,00
863,98	602,00
864,41	581,00
864,84	592,00
865,27	605,00
865,71	593,00
866,14	602,00
866,57	596,00
867,00	604,00
867,44	588,00
867,87	591,00
868,30	602,00
868,73	592,00
869,16	595,00
869,60	597,00
870,03	615,00
870,46	609,00
870,89	605,00
871,33	592,00
871,76	605,00
872,19	620,00
872,62	612,00
873,05	588,00
873,49	592,00
873,92	598,00
874,35	597,00
874,78	598,00
875,21	606,00
875,64	594,00
876,08	593,00
876,51	593,00
876,94	585,00
877,37	606,00
877,80	594,00
878,23	598,00
878,67	601,00
879,10	605,00
879,53	620,00
879,96	618,00
880,39	600,00
880,82	608,00
881,25	593,00
881,69	592,00
882,12	609,00
882,55	615,00
882,98	608,00
883,41	614,00
883,84	606,00
884,27	613,00
884,70	604,00
885,14	591,00
885,57	600,00
886,00	615,00
886,43	610,00
886,86	597,00
887,29	606,00
887,72	610,00
888,15	609,00
888,58	586,00
889,02	619,00
889,45	606,00
889,88	601,00
890,31	588,00
890,74	588,00
891,17	604,00
891,60	594,00
892,03	600,00
892,46	605,00
892,89	617,00
893,32	599,00
893,75	604,00
894,18	604,00
894,61	609,00
895,05	594,00
895,48	587,00
895,91	612,00
896,34	607,00
896,77	584,00
897,20	589,00
897,63	611,00
898,06	607,00
898,49	599,00
898,92	597,00
899,35	617,00
899,78	602,00
900,21	597,00
900,64	603,00
901,07	609,00
901,50	628,00
901,93	599,00
902,36	584,00
902,79	611,00
903,22	616,00
903,65	616,00
904,08	600,00
904,51	598,00
904,94	617,00
905,37	616,00
905,80	586,00
906,23	616,00
906,66	595,00
907,09	579,00
907,52	594,00
907,95	612,00
908,38	610,00
908,81	598,00
909,24	596,00
909,67	616,00
910,10	609,00
910,53	599,00
910,96	592,00
911,38	614,00
911,81	619,00
912,24	595,00
912,67	604,00
913,10	604,00
913,53	601,00
913,96	599,00
914,39	605,00
914,82	601,00
915,25	603,00
915,68	593,00
916,11	604,00
916,54	614,00
916,97	598,00
917,39	606,00
917,82	605,00
918,25	603,00
918,68	582,00
919,11	608,00
919,54	613,00
919,97	609,00
920,40	597,00
920,83	589,00
921,25	597,00
921,68	608,00
922,11	597,00
922,54	597,00
922,97	592,00
923,40	607,00
923,83	605,00
924,26	596,00
924,68	588,00
925,11	613,00
925,54	610,00
925,97	581,00
926,40	616,00
926,83	612,00
927,26	597,00
927,68	603,00
928,11	615,00
928,54	625,00
928,97	586,00
929,40	598,00
929,83	612,00
930,25	620,00
930,68	594,00
931,11	601,00
931,54	607,00
931,97	615,00
932,39	598,00
932,82	599,00
933,25	604,00
933,68	618,00
934,11	606,00
934,53	607,00
934,96	606,00
935,39	607,00
935,82	607,00
936,25	600,00
936,67	617,00
937,10	610,00
937,53	604,00
937,96	580,00
938,38	594,00
938,81	612,00
939,24	602,00
939,67	603,00
940,10	608,00
940,52	600,00
940,95	592,00
941,38	592,00
941,81	615,00
942,23	616,00
942,66	584,00
943,09	592,00
943,51	620,00
943,94	604,00
944,37	595,00
944,80	602,00
945,22	613,00
945,65	595,00
946,08	606,00
946,51	609,00
946,93	618,00
947,36	596,00
947,79	600,00
948,21	614,00
948,64	608,00
949,07	606,00
949,49	616,00
949,92	617,00
950,35	597,00
950,78	610,00
951,20	580,00
951,63	592,00
952,06	611,00
952,48	607,00
952,91	600,00
953,34	592,00
953,76	623,00
954,19	614,00
954,62	601,00
955,04	609,00
955,47	600,00
955,90	599,00
956,32	583,00
956,75	602,00
957,18	608,00
957,60	603,00
958,03	597,00
958,45	600,00
958,88	600,00
959,31	604,00
959,73	587,00
960,16	609,00
960,59	609,00
961,01	590,00
961,44	580,00
961,86	592,00
962,29	607,00
962,72	616,00
963,14	592,00
963,57	594,00
963,99	601,00
964,42	608,00
964,85	594,00
965,27	589,00
965,70	616,00
966,12	588,00
966,55	583,00
966,98	600,00
967,40	612,00
967,83	613,00
968,25	612,00
968,68	598,00
969,10	606,00
969,53	604,00
969,96	606,00
970,38	596,00
970,81	621,00
971,23	614,00
971,66	600,00
972,08	612,00
972,51	614,00
972,93	607,00
973,36	607,00
973,78	600,00
974,21	603,00
974,64	597,00
975,06	608,00
975,49	605,00
975,91	616,00
976,34	595,00
976,76	602,00
977,19	608,00
977,61	608,00
978,04	598,00
978,46	613,00
978,89	608,00
979,31	616,00
979,74	604,00
980,16	586,00
980,59	611,00
981,01	606,00
981,44	608,00
981,86	580,00
982,29	613,00
982,71	600,00
983,14	590,00
983,56	589,00
983,98	600,00
984,41	596,00
984,83	600,00
985,26	586,00
985,68	616,00
986,11	612,00
986,53	622,00
986,96	588,00
987,38	608,00
987,81	606,00
988,23	586,00
988,65	598,00
989,08	616,00
989,50	615,00
989,93	592,00
990,35	590,00
990,78	588,00
991,20	606,00
991,62	595,00
992,05	607,00
992,47	589,00
992,90	612,00
993,32	591,00
993,74	592,00
994,17	602,00
994,59	613,00
995,02	585,00
995,44	611,00
995,86	608,00
996,29	602,00
996,71	588,00
997,13	580,00
997,56	586,00
997,98	586,00
998,41	599,00
998,83	599,00
999,25	608,00
999,68	610,00
1000,10	599,00
1000,52	604,00
1000,95	601,00
1001,37	597,00
1001,79	605,00
1002,22	595,00
1002,64	628,00
1003,06	598,00
1003,49	610,00
1003,91	604,00
1004,33	606,00
1004,76	599,00
1005,18	593,00
1005,60	595,00
1006,03	606,00
1006,45	616,00
1006,87	589,00
1007,30	603,00
1007,72	624,00
1008,14	599,00
1008,57	594,00
1008,99	592,00
1009,41	616,00
1009,83	602,00
1010,26	578,00
1010,68	593,00
1011,10	596,00
1011,53	595,00
1011,95	609,00
1012,37	588,00
1012,79	605,00
1013,22	604,00
1013,64	607,00
1014,06	593,00
1014,48	607,00
1014,91	598,00
1015,33	593,00
1015,75	604,00
1016,17	598,00
1016,60	591,00
1017,02	592,00
1017,44	600,00
1017,86	595,00
1018,29	596,00
1018,71	600,00
1019,13	619,00
1019,55	613,00
1019,98	604,00
1020,40	605,00
1020,82	589,00
1021,24	617,00
1021,66	603,00
1022,09	617,00
1022,51	610,00
1022,93	626,00
1023,35	605,00
1023,77	591,00
1024,20	602,00
1024,62	599,00
1025,04	607,00
1025,46	605,00
1025,88	612,00
1026,31	612,00
1026,73	600,00
1027,15	603,00
1027,57	603,00
1027,99	601,00
1028,41	588,00
1028,84	612,00
1029,26	612,00
1029,68	603,00
1030,10	596,00
1030,52	585,00
1030,94	610,00
1031,36	590,00
1031,79	586,00
1032,21	584,00
1032,63	613,00
1033,05	619,00
1033,47	608,00
1033,89	593,00
1034,31	618,00
1034,73	606,00
1035,16	595,00
1035,58	612,00
1036,00	610,00
1036,42	610,00
1036,84	594,00
1037,26	596,00
1037,68	623,00
1038,10	604,00
1038,52	589,00
1038,95	586,00
1039,37	607,00
1039,79	608,00
1040,21	579,00
1040,63	571,00
1041,05	604,00
1041,47	609,00
1041,89	586,00
1042,31	600,00
1042,73	604,00
1043,15	604,00
1043,57	595,00
1043,99	594,00
1044,41	621,00
1044,83	599,00
1045,26	570,00
1045,68	602,00
1046,10	603,00
1046,52	611,00
1046,94	595,00
1047,36	602,00
1047,78	621,00
1048,20	608,00
1048,62	578,00
1049,04	587,00
1049,46	612,00
1049,88	599,00
1050,30	592,00
1050,72	587,00
1051,14	601,00
1051,56	594,00
1051,98	605,00
1052,40	605,00
1052,82	604,00
1053,24	588,00
1053,66	588,00
1054,08	608,00
1054,50	617,00
1054,92	603,00
1055,34	592,00
1055,76	586,00
1056,18	614,00
1056,60	587,00
1057,02	596,00
1057,44	606,00
1057,86	610,00
1058,28	599,00
1058,69	598,00
1059,11	602,00
1059,53	595,00
1059,95	577,00
1060,37	598,00
1060,79	616,00
1061,21	612,00
1061,63	576,00
1062,05	596,00
1062,47	610,00
1062,89	608,00
1063,31	599,00
1063,73	601,00
1064,15	602,00
1064,56	607,00
1064,98	594,00
1065,40	596,00
1065,82	602,00
1066,24	608,00
1066,66	595,00
1067,08	594,00
1067,50	583,00
1067,92	624,00
1068,34	586,00
1068,75	600,00
1069,17	604,00
1069,59	620,00
1070,01	587,00
1070,43	576,00
1070,85	594,00
1071,27	608,00
1071,69	589,00
1072,10	596,00
1072,52	606,00
1072,94	614,00
1073,36	603,00
1073,78	598,00
1074,20	605,00
1074,61	616,00
1075,03	603,00
1075,45	592,00
1075,87	609,00
1076,29	595,00
1076,71	612,00
1077,12	588,00
1077,54	601,00
1077,96	602,00
1078,38	602,00
1078,80	595,00
1079,22	600,00
1079,63	598,00
1080,05	589,00
1080,47	588,00
1080,89	619,00
1081,31	594,00
1081,72	594,00
1082,14	598,00
1082,56	606,00
1082,98	609,00
1083,39	595,00
1083,81	602,00
1084,23	602,00
1084,65	605,00
1085,07	609,00
1085,48	593,00
1085,90	604,00
1086,32	598,00
1086,74	581,00
1087,15	586,00
1087,57	609,00
1087,99	609,00
1088,41	603,00
1088,82	590,00
1089,24	606,00
1089,66	597,00
1090,08	589,00
1090,49	596,00
1090,91	593,00
1091,33	607,00
1091,74	602,00
1092,16	599,00
1092,58	592,00
1093,00	586,00
1093,41	599,00
1093,83	594,00
1094,25	623,00
1094,66	603,00
1095,08	584,00
1095,50	612,00
1095,91	607,00
1096,33	603,00
1096,75	600,00
1097,17	604,00
1097,58	604,00
1098,00	605,00
1098,42	600,00
>>>>>End Processed Spectral Data<<<<<
